time,frequency,confidence
0.000,188.003,0.603085
0.010,189.575,0.842391
0.020,190.791,0.788621
0.030,194.384,0.561236
0.040,206.523,0.580779
0.050,213.472,0.659790
0.060,224.089,0.805750
0.070,230.921,0.760962
0.080,238.479,0.790299
0.090,244.832,0.872463
0.100,251.276,0.874982
0.110,256.332,0.951609
0.120,260.097,0.931641
0.130,262.684,0.950687
0.140,266.156,0.942573
0.150,269.204,0.951393
0.160,272.778,0.948832
0.170,274.885,0.951739
0.180,276.311,0.914709
0.190,277.651,0.931617
0.200,278.705,0.933790
0.210,280.119,0.918307
0.220,281.699,0.934021
0.230,282.566,0.915652
0.240,281.938,0.901833
0.250,282.485,0.831637
0.260,289.129,0.583177
0.270,297.307,0.831974
0.280,298.662,0.880319
0.290,295.260,0.512948
0.300,282.088,0.675210
0.310,278.498,0.691847
0.320,249.928,0.515661
0.330,245.914,0.473353
0.340,242.020,0.450330
0.350,238.748,0.492613
0.360,236.261,0.618939
0.370,234.093,0.689755
0.380,231.420,0.698620
0.390,229.084,0.822106
0.400,226.029,0.833749
0.410,220.440,0.703051
0.420,212.775,0.602468
0.430,202.778,0.446622
0.440,194.369,0.529547
0.450,186.150,0.768277
0.460,183.237,0.844413
0.470,178.384,0.552379
0.480,170.146,0.597943
0.490,166.058,0.798687
0.500,165.973,0.737784
0.510,167.370,0.433006
0.520,176.730,0.469967
0.530,180.968,0.771405
0.540,184.599,0.708646
0.550,192.310,0.617377
0.560,197.832,0.522655
0.570,206.783,0.531599
0.580,220.341,0.366213
0.590,242.058,0.509998
0.600,251.939,0.596710
0.610,260.617,0.687472
0.620,269.358,0.850300
0.630,275.407,0.884056
0.640,280.872,0.903691
0.650,286.213,0.867054
0.660,291.482,0.913952
0.670,294.431,0.960170
0.680,295.860,0.966435
0.690,296.066,0.966750
0.700,295.963,0.964575
0.710,295.104,0.969815
0.720,294.543,0.975106
0.730,294.292,0.978202
0.740,294.501,0.976056
0.750,295.738,0.964778
0.760,297.324,0.960865
0.770,298.701,0.968199
0.780,299.251,0.964175
0.790,298.299,0.968738
0.800,296.203,0.947585
0.810,293.461,0.950956
0.820,292.434,0.901091
0.830,292.665,0.797001
0.840,295.257,0.624236
0.850,297.647,0.633711
0.860,300.027,0.742172
0.870,297.519,0.839000
0.880,295.855,0.827103
0.890,293.489,0.917989
0.900,290.886,0.906381
0.910,290.022,0.845651
0.920,289.476,0.758698
0.930,290.643,0.670487
0.940,294.869,0.650292
0.950,216.396,0.388152
0.960,211.122,0.366860
0.970,204.589,0.440883
0.980,196.708,0.508582
0.990,190.857,0.672312
1.000,187.545,0.838687
1.010,185.777,0.908394
1.020,185.126,0.942160
1.030,185.262,0.938390
1.040,186.197,0.910206
1.050,187.682,0.834178
1.060,190.353,0.633515
1.070,193.749,0.574956
1.080,198.940,0.481502
1.090,206.100,0.271830
1.100,222.158,0.330363
1.110,224.561,0.150174
1.120,301.832,0.123137
1.130,299.382,0.498900
1.140,294.465,0.863206
1.150,294.827,0.956447
1.160,297.551,0.903884
1.170,302.224,0.935999
1.180,305.188,0.970072
1.190,306.587,0.958845
1.200,307.589,0.973769
1.210,306.731,0.951329
1.220,303.976,0.952450
1.230,300.622,0.944472
1.240,297.556,0.955590
1.250,295.416,0.956952
1.260,294.373,0.952319
1.270,293.530,0.926804
1.280,292.803,0.931894
1.290,292.528,0.942039
1.300,291.989,0.947056
1.310,290.093,0.914019
1.320,288.184,0.939918
1.330,287.070,0.944969
1.340,287.371,0.953024
1.350,288.706,0.944347
1.360,289.384,0.924795
1.370,289.382,0.916412
1.380,289.691,0.913312
1.390,290.777,0.941387
1.400,292.127,0.946399
1.410,293.480,0.931730
1.420,294.471,0.952996
1.430,294.939,0.958375
1.440,295.273,0.959763
1.450,295.864,0.955573
1.460,296.371,0.945878
1.470,296.436,0.946537
1.480,296.069,0.956919
1.490,295.766,0.964635
1.500,295.628,0.968547
1.510,295.619,0.966676
1.520,295.870,0.958962
1.530,296.736,0.936739
1.540,297.503,0.965575
1.550,296.531,0.933462
1.560,295.120,0.889499
1.570,294.888,0.704335
1.580,294.606,0.619995
1.590,293.563,0.691248
1.600,292.368,0.767323
1.610,294.152,0.779861
1.620,295.930,0.843327
1.630,297.488,0.803980
1.640,296.310,0.704179
1.650,298.581,0.527085
1.660,347.487,0.479803
1.670,342.862,0.575796
1.680,339.067,0.737166
1.690,336.870,0.838396
1.700,334.879,0.946184
1.710,333.408,0.967399
1.720,333.971,0.969777
1.730,333.442,0.962550
1.740,332.038,0.954023
1.750,331.145,0.970404
1.760,331.006,0.972203
1.770,331.022,0.971236
1.780,331.587,0.968586
1.790,332.496,0.952848
1.800,332.622,0.944126
1.810,333.143,0.956665
1.820,333.438,0.964100
1.830,333.463,0.963724
1.840,334.222,0.971508
1.850,334.982,0.970212
1.860,334.770,0.966989
1.870,333.309,0.946644
1.880,329.576,0.902854
1.890,325.649,0.774509
1.900,320.171,0.558199
1.910,311.122,0.376554
1.920,251.683,0.203534
1.930,244.557,0.221155
1.940,231.276,0.423049
1.950,228.089,0.440233
1.960,331.279,0.432415
1.970,330.509,0.797199
1.980,328.596,0.758347
1.990,326.714,0.584148
2.000,321.348,0.315097
2.010,291.699,0.273243
2.020,288.045,0.302355
2.030,284.961,0.469972
2.040,284.645,0.664583
2.050,284.962,0.916938
2.060,285.461,0.951975
2.070,285.487,0.948015
2.080,286.063,0.934228
2.090,287.769,0.958450
2.100,290.138,0.942558
2.110,293.024,0.931739
2.120,295.505,0.957315
2.130,297.531,0.954049
2.140,299.158,0.944078
2.150,299.999,0.925595
2.160,299.959,0.923089
2.170,300.173,0.939748
2.180,300.594,0.955446
2.190,300.383,0.951339
2.200,297.394,0.921326
2.210,291.716,0.907245
2.220,287.506,0.925716
2.230,283.148,0.888719
2.240,276.963,0.701641
2.250,269.813,0.751759
2.260,259.947,0.565711
2.270,249.196,0.515422
2.280,242.443,0.397505
2.290,292.050,0.646102
2.300,288.873,0.845161
2.310,285.681,0.865975
2.320,284.952,0.890208
2.330,290.803,0.662778
2.340,295.118,0.737163
2.350,299.346,0.809638
2.360,300.450,0.809144
2.370,295.975,0.757595
2.380,290.061,0.691153
2.390,286.158,0.838602
2.400,283.264,0.901852
2.410,282.087,0.688262
2.420,295.604,0.509379
2.430,300.378,0.811684
2.440,300.623,0.890794
2.450,298.207,0.913301
2.460,294.828,0.858150
2.470,290.602,0.780117
2.480,288.486,0.837457
2.490,290.527,0.801153
2.500,294.163,0.837273
2.510,296.564,0.894636
2.520,296.977,0.901870
2.530,295.819,0.733178
2.540,288.908,0.394283
2.550,283.974,0.611704
2.560,284.237,0.806869
2.570,283.468,0.780494
2.580,289.406,0.521226
2.590,293.784,0.612215
2.600,296.162,0.671353
2.610,296.893,0.765811
2.620,296.349,0.704719
2.630,295.058,0.417772
2.640,288.832,0.673007
2.650,287.589,0.681092
2.660,290.658,0.401255
2.670,296.838,0.397656
2.680,294.745,0.613859
2.690,291.053,0.785283
2.700,289.589,0.793995
2.710,288.278,0.834059
2.720,286.773,0.883693
2.730,284.393,0.934314
2.740,282.528,0.856480
2.750,279.924,0.494878
2.760,270.109,0.477947
2.770,268.786,0.624333
2.780,269.541,0.586459
2.790,300.834,0.480237
2.800,301.063,0.639471
2.810,298.836,0.653267
2.820,295.260,0.800838
2.830,295.846,0.868744
2.840,295.134,0.846197
2.850,295.611,0.788095
2.860,296.097,0.726928
2.870,295.825,0.578139
2.880,296.385,0.585942
2.890,296.168,0.655172
2.900,296.524,0.768465
2.910,296.487,0.719830
2.920,279.895,0.340155
2.930,286.288,0.680883
2.940,288.878,0.842478
2.950,290.316,0.768375
2.960,293.141,0.675106
2.970,296.613,0.743565
2.980,294.990,0.751879
2.990,292.772,0.633415
3.000,292.232,0.393162
3.010,280.922,0.527944
3.020,285.897,0.547566
3.030,291.195,0.763134
3.040,292.427,0.826698
3.050,294.432,0.858529
3.060,295.398,0.891244
3.070,295.154,0.885124
3.080,294.838,0.816194
3.090,294.372,0.643924
3.100,289.475,0.504957
3.110,289.729,0.711862
3.120,292.961,0.793964
3.130,295.893,0.804474
3.140,297.727,0.888854
3.150,298.152,0.862199
3.160,297.803,0.736027
3.170,296.445,0.693849
3.180,292.643,0.650954
3.190,293.258,0.705570
3.200,293.091,0.702175
3.210,290.283,0.788167
3.220,289.375,0.858916
3.230,289.050,0.750730
3.240,293.685,0.789654
3.250,295.692,0.829710
3.260,298.507,0.774433
3.270,298.645,0.778681
3.280,298.431,0.865889
3.290,297.825,0.919955
3.300,297.285,0.921230
3.310,296.928,0.841244
3.320,290.651,0.509176
3.330,286.987,0.620100
3.340,289.691,0.795047
3.350,290.733,0.842124
3.360,293.884,0.845305
3.370,295.416,0.895523
3.380,296.738,0.902248
3.390,298.626,0.954574
3.400,298.536,0.934188
3.410,294.961,0.738938
3.420,296.910,0.702005
3.430,297.805,0.808407
3.440,296.891,0.856603
3.450,296.207,0.800095
3.460,296.233,0.631149
3.470,296.962,0.799610
3.480,297.221,0.910976
3.490,296.606,0.897046
3.500,296.953,0.854033
3.510,296.726,0.845846
3.520,294.559,0.819590
3.530,292.279,0.736320
3.540,292.125,0.559301
3.550,293.187,0.558077
3.560,293.711,0.757247
3.570,291.879,0.836630
3.580,289.740,0.666660
3.590,289.821,0.607611
3.600,293.963,0.695459
3.610,297.770,0.859676
3.620,297.744,0.830553
3.630,294.990,0.732064
3.640,290.603,0.500583
3.650,279.294,0.653811
3.660,279.525,0.467816
3.670,297.347,0.767782
3.680,295.367,0.823873
3.690,292.277,0.790767
3.700,288.015,0.619825
3.710,288.765,0.575656
3.720,293.819,0.789428
3.730,296.047,0.854894
3.740,296.911,0.873478
3.750,295.777,0.808317
3.760,296.434,0.741655
3.770,296.779,0.595003
3.780,298.350,0.719879
3.790,298.780,0.753949
3.800,298.960,0.773607
3.810,297.883,0.749790
3.820,295.157,0.715792
3.830,290.420,0.714658
3.840,284.386,0.694244
3.850,280.276,0.757970
3.860,281.098,0.633825
3.870,292.057,0.362483
3.880,290.698,0.425231
3.890,291.000,0.275384
3.900,287.782,0.266358
3.910,283.919,0.184321
3.920,293.096,0.400950
3.930,292.932,0.576818
3.940,292.522,0.478628
3.950,294.209,0.722771
3.960,295.836,0.803536
3.970,294.994,0.860709
3.980,294.923,0.866529
3.990,294.813,0.866059
4.000,295.654,0.871951
4.010,295.851,0.806588
4.020,297.488,0.680739
4.030,298.959,0.562321
4.040,292.146,0.636026
4.050,290.777,0.659296
4.060,287.159,0.659955
4.070,285.459,0.508383
4.080,294.104,0.366873
4.090,175.017,0.167042
4.100,102.155,0.144282
4.110,98.181,0.073037
4.120,120.106,0.053804
4.130,96.919,0.039250
4.140,96.919,0.039250
4.150,96.919,0.039250
4.160,96.919,0.039250
4.170,96.919,0.039250
4.180,96.919,0.039250
4.190,96.919,0.039250
4.200,96.919,0.039250
4.210,96.919,0.039250
4.220,96.919,0.039250
4.230,96.919,0.039250
4.240,96.919,0.039250
4.250,96.919,0.039250
4.260,96.919,0.039250
4.270,96.919,0.039250
4.280,96.919,0.039250
4.290,96.919,0.039250
4.300,97.479,0.060964
4.310,97.040,0.088633
4.320,95.252,0.094024
4.330,276.325,0.137386
4.340,547.126,0.141317
4.350,547.251,0.144380
4.360,547.722,0.148251
4.370,546.679,0.098706
4.380,546.378,0.073237
4.390,547.737,0.124831
4.400,547.830,0.050873
4.410,549.450,0.043891
4.420,551.936,0.065651
4.430,232.843,0.015662
4.440,226.900,0.016468
4.450,35.220,0.081142
4.460,57.310,0.045042
4.470,58.877,0.469440
4.480,60.340,0.456499
4.490,32.133,0.361331
4.500,32.312,0.402193
4.510,61.556,0.270580
4.520,32.156,0.158535
4.530,33.300,0.335459
4.540,33.750,0.361726
4.550,66.034,0.258159
4.560,65.217,0.644547
4.570,63.827,0.635747
4.580,63.576,0.627089
4.590,64.121,0.340629
4.600,68.734,0.205734
4.610,68.544,0.040906
4.620,64.846,0.253155
4.630,126.034,0.541577
4.640,125.833,0.710813
4.650,126.934,0.779298
4.660,129.327,0.817161
4.670,131.423,0.861611
4.680,133.260,0.838025
4.690,135.461,0.858780
4.700,137.063,0.850125
4.710,138.203,0.863271
4.720,139.090,0.850256
4.730,140.939,0.671374
4.740,146.934,0.487479
4.750,169.056,0.291377
4.760,173.913,0.408205
4.770,179.479,0.703224
4.780,181.226,0.834502
4.790,182.506,0.836243
4.800,179.978,0.813268
4.810,177.663,0.888122
4.820,176.639,0.884020
4.830,176.702,0.868138
4.840,176.829,0.864115
4.850,176.121,0.884202
4.860,176.161,0.810971
4.870,177.096,0.665500
4.880,178.393,0.731637
4.890,178.614,0.804727
4.900,177.256,0.806309
4.910,175.290,0.748809
4.920,174.553,0.693581
4.930,176.222,0.676351
4.940,177.623,0.702121
4.950,178.590,0.566819
4.960,179.280,0.638563
4.970,179.323,0.513912
4.980,179.460,0.386109
4.990,179.186,0.132569
5.000,177.925,0.182101
5.010,177.614,0.119988
5.020,184.554,0.197837
5.030,190.642,0.526776
5.040,193.084,0.765656
5.050,194.585,0.826021
5.060,196.710,0.841669
5.070,200.549,0.811877
5.080,203.672,0.929308
5.090,205.402,0.944008
5.100,206.028,0.962565
5.110,206.022,0.960504
5.120,205.207,0.944361
5.130,203.871,0.928824
5.140,201.429,0.860371
5.150,198.101,0.809694
5.160,195.011,0.777966
5.170,190.985,0.489537
5.180,182.544,0.594132
5.190,177.862,0.622766
5.200,179.172,0.572728
5.210,184.322,0.468148
5.220,202.548,0.644449
5.230,204.345,0.778282
5.240,206.329,0.642756
5.250,205.737,0.503450
5.260,203.694,0.390407
5.270,204.913,0.277302
5.280,223.133,0.105242
5.290,204.452,0.271602
5.300,204.432,0.284146
5.310,357.893,0.196979
5.320,357.910,0.113646
5.330,324.698,0.184350
5.340,319.152,0.563809
5.350,314.914,0.809109
5.360,313.127,0.948259
5.370,313.261,0.957758
5.380,313.845,0.950902
5.390,313.490,0.958573
5.400,312.416,0.967128
5.410,310.675,0.935099
5.420,306.126,0.927928
5.430,301.961,0.950739
5.440,296.990,0.895337
5.450,291.467,0.901701
5.460,286.223,0.848002
5.470,281.207,0.866097
5.480,280.963,0.724844
5.490,289.514,0.755722
5.500,293.490,0.866603
5.510,293.406,0.821557
5.520,290.109,0.794366
5.530,286.191,0.886960
5.540,283.536,0.899433
5.550,280.262,0.912667
5.560,278.860,0.917390
5.570,277.196,0.929413
5.580,276.212,0.909473
5.590,275.054,0.938852
5.600,274.615,0.939371
5.610,274.703,0.935469
5.620,275.475,0.933553
5.630,276.190,0.913864
5.640,276.613,0.915029
5.650,275.808,0.937759
5.660,274.474,0.958295
5.670,274.554,0.936943
5.680,276.773,0.914419
5.690,278.168,0.947811
5.700,278.853,0.940419
5.710,278.622,0.941252
5.720,278.721,0.928950
5.730,278.443,0.939409
5.740,277.851,0.942064
5.750,276.634,0.925805
5.760,275.351,0.950037
5.770,273.747,0.946683
5.780,271.256,0.939081
5.790,267.467,0.929852
5.800,264.144,0.884867
5.810,261.774,0.878531
5.820,260.571,0.681491
5.830,266.018,0.313712
5.840,224.916,0.479292
5.850,219.401,0.678913
5.860,214.913,0.640155
5.870,208.773,0.731304
5.880,204.278,0.718205
5.890,200.200,0.705195
5.900,194.737,0.627556
5.910,189.773,0.566237
5.920,186.560,0.741512
5.930,184.548,0.794449
5.940,182.837,0.832410
5.950,182.342,0.787618
5.960,181.735,0.402353
5.970,238.216,0.573690
5.980,239.645,0.878943
5.990,240.988,0.932850
6.000,240.655,0.946564
6.010,239.684,0.946151
6.020,239.414,0.953446
6.030,240.909,0.944127
6.040,243.386,0.937919
6.050,246.472,0.910444
6.060,249.827,0.920265
6.070,254.023,0.932035
6.080,256.375,0.966608
6.090,257.326,0.961655
6.100,256.350,0.973863
6.110,254.619,0.956629
6.120,252.016,0.910456
6.130,249.006,0.868960
6.140,245.520,0.745862
6.150,239.521,0.663416
6.160,235.650,0.341072
6.170,209.016,0.641993
6.180,204.264,0.743936
6.190,201.979,0.655581
6.200,197.556,0.793413
6.210,195.742,0.809907
6.220,194.613,0.811674
6.230,193.138,0.759174
6.240,191.271,0.715930
6.250,189.720,0.770030
6.260,188.270,0.760620
6.270,188.305,0.633347
6.280,190.539,0.341699
6.290,241.097,0.232884
6.300,246.903,0.491398
6.310,253.628,0.389433
6.320,262.819,0.419518
6.330,276.328,0.565848
6.340,286.634,0.647743
6.350,294.736,0.861093
6.360,299.216,0.936468
6.370,301.533,0.966382
6.380,302.224,0.965644
6.390,301.471,0.962708
6.400,300.210,0.934092
6.410,297.981,0.946744
6.420,295.779,0.951701
6.430,294.060,0.961075
6.440,291.849,0.942018
6.450,289.361,0.877360
6.460,285.856,0.864142
6.470,280.504,0.831280
6.480,277.086,0.913598
6.490,276.846,0.902505
6.500,278.460,0.897751
6.510,283.164,0.800215
6.520,289.970,0.849189
6.530,293.523,0.909647
6.540,294.749,0.956276
6.550,295.877,0.930830
6.560,296.640,0.920856
6.570,296.513,0.919064
6.580,294.103,0.911825
6.590,290.597,0.779875
6.600,278.083,0.638246
6.610,271.121,0.799897
6.620,265.138,0.868873
6.630,262.795,0.936426
6.640,265.164,0.857511
6.650,268.682,0.785311
6.660,276.822,0.854535
6.670,279.947,0.924893
6.680,281.098,0.945242
6.690,280.130,0.934386
6.700,278.195,0.954385
6.710,275.903,0.940992
6.720,272.837,0.912367
6.730,263.652,0.670866
6.740,255.785,0.529479
6.750,229.709,0.321229
6.760,228.086,0.348455
6.770,218.669,0.184437
6.780,172.998,0.323139
6.790,167.990,0.232654
6.800,134.113,0.227899
6.810,128.230,0.350445
6.820,251.754,0.668185
6.830,227.248,0.478469
6.840,235.721,0.273813
6.850,284.003,0.279561
6.860,280.805,0.275930
6.870,279.833,0.555369
6.880,275.014,0.729083
6.890,271.655,0.817072
6.900,256.594,0.498782
6.910,261.227,0.472458
6.920,282.719,0.358545
6.930,281.288,0.643055
6.940,286.181,0.682932
6.950,286.512,0.715071
6.960,281.869,0.482361
6.970,276.161,0.604780
6.980,272.491,0.815335
6.990,269.285,0.506395
7.000,279.843,0.301521
7.010,278.387,0.549596
7.020,275.911,0.702896
7.030,276.423,0.810922
7.040,274.171,0.837122
7.050,273.976,0.786813
7.060,273.894,0.755555
7.070,283.565,0.470432
7.080,284.592,0.429021
7.090,278.508,0.459075
7.100,277.041,0.681536
7.110,276.388,0.686450
7.120,282.364,0.398589
7.130,283.073,0.392380
7.140,275.125,0.639713
7.150,278.965,0.826331
7.160,280.447,0.861537
7.170,282.740,0.839526
7.180,283.309,0.830367
7.190,284.980,0.793616
7.200,282.396,0.628327
7.210,282.250,0.465155
7.220,270.529,0.653245
7.230,267.446,0.716431
7.240,267.152,0.820925
7.250,269.812,0.861614
7.260,269.788,0.845427
7.270,268.849,0.723201
7.280,269.911,0.560319
7.290,266.448,0.618176
7.300,268.851,0.507142
7.310,271.944,0.723434
7.320,269.439,0.625551
7.330,263.739,0.325624
7.340,252.340,0.435791
7.350,257.600,0.569747
7.360,263.357,0.702135
7.370,269.047,0.727678
7.380,273.676,0.796644
7.390,275.006,0.871714
7.400,273.494,0.831793
7.410,266.236,0.655900
7.420,263.699,0.492861
7.430,263.854,0.366016
7.440,285.355,0.412683
7.450,280.460,0.619752
7.460,277.220,0.422451
7.470,272.562,0.703785
7.480,277.811,0.455581
7.490,282.885,0.529050
7.500,286.485,0.627607
7.510,288.950,0.479427
7.520,291.537,0.428097
7.530,269.809,0.298812
7.540,288.212,0.260934
7.550,267.471,0.474296
7.560,274.447,0.594544
7.570,276.302,0.791291
7.580,274.989,0.904556
7.590,274.663,0.876598
7.600,269.472,0.724352
7.610,263.126,0.756182
7.620,259.909,0.805923
7.630,259.407,0.720011
7.640,255.082,0.471883
7.650,297.647,0.360751
7.660,269.469,0.480865
7.670,272.560,0.573214
7.680,281.242,0.439024
7.690,290.833,0.599181
7.700,294.861,0.782386
7.710,294.030,0.837537
7.720,291.198,0.674626
7.730,289.252,0.480014
7.740,286.610,0.402924
7.750,284.439,0.553543
7.760,276.777,0.584143
7.770,275.997,0.849896
7.780,280.867,0.857942
7.790,282.666,0.840577
7.800,285.426,0.738694
7.810,287.596,0.673831
7.820,281.009,0.362271
7.830,262.936,0.377777
7.840,264.089,0.647128
7.850,266.230,0.635343
7.860,272.242,0.579513
7.870,276.145,0.809004
7.880,277.617,0.904658
7.890,278.015,0.882900
7.900,277.561,0.883841
7.910,276.384,0.894422
7.920,275.015,0.934960
7.930,272.456,0.888314
7.940,267.071,0.743426
7.950,265.349,0.651214
7.960,269.833,0.611271
7.970,273.526,0.793260
7.980,274.484,0.582635
7.990,285.853,0.446439
8.000,289.851,0.498826
8.010,275.912,0.419955
8.020,277.022,0.389141
8.030,294.907,0.431829
8.040,295.111,0.430202
8.050,295.917,0.437610
8.060,278.040,0.370375
8.070,283.841,0.395345
8.080,287.831,0.585840
8.090,280.807,0.553709
8.100,275.152,0.730448
8.110,271.834,0.865297
8.120,270.544,0.880656
8.130,269.684,0.868185
8.140,270.795,0.851030
8.150,270.060,0.777763
8.160,267.015,0.670400
8.170,265.856,0.536307
8.180,271.070,0.504749
8.190,275.203,0.546086
8.200,280.426,0.791019
8.210,284.303,0.866490
8.220,283.800,0.861934
8.230,282.750,0.683044
8.240,279.797,0.423043
8.250,290.755,0.477522
8.260,291.493,0.635757
8.270,287.288,0.621588
8.280,280.635,0.558895
8.290,280.961,0.462391
8.300,281.229,0.528425
8.310,281.595,0.549223
8.320,285.141,0.373790
8.330,296.400,0.452442
8.340,283.349,0.308049
8.350,273.368,0.377157
8.360,278.676,0.442888
8.370,280.484,0.759970
8.380,278.555,0.812381
8.390,277.413,0.831430
8.400,278.643,0.716155
8.410,279.668,0.574287
8.420,282.051,0.485817
8.430,281.829,0.204738
8.440,542.025,0.159749
8.450,544.935,0.108963
8.460,549.462,0.076922
8.470,550.530,0.081394
8.480,548.102,0.105825
8.490,548.506,0.075668
8.500,555.722,0.048344
8.510,568.773,0.004737
8.520,457.975,0.007866
8.530,78.699,0.007590
8.540,78.842,0.090200
8.550,78.234,0.128612
8.560,78.062,0.050235
8.570,40.175,0.068901
8.580,279.910,0.012456
8.590,277.375,0.028281
8.600,129.099,0.248696
8.610,128.978,0.676424
8.620,129.770,0.809143
8.630,130.802,0.877566
8.640,132.268,0.865587
8.650,133.996,0.880200
8.660,135.868,0.828073
8.670,137.608,0.758318
8.680,140.586,0.496877
8.690,146.244,0.659581
